in Sa,Frequency in Hz,Gain in dB,Phase in °,Amplitude in Vpp
1.00E+00,1.000E+01,-4.192E+01,9.561E+01,2.500E+00
2.00E+00,1.047E+01,-4.174E+01,9.744E+01,2.500E+00
3.00E+00,1.096E+01,-4.160E+01,8.785E+01,2.500E+00
4.00E+00,1.148E+01,-4.155E+01,8.140E+01,2.500E+00
5.00E+00,1.202E+01,-4.123E+01,9.075E+01,2.500E+00
6.00E+00,1.259E+01,-3.926E+01,8.783E+01,2.500E+00
7.00E+00,1.318E+01,-3.983E+01,8.340E+01,2.500E+00
8.00E+00,1.380E+01,-3.952E+01,9.360E+01,2.500E+00
9.00E+00,1.445E+01,-3.901E+01,8.888E+01,2.500E+00
1.00E+01,1.514E+01,-3.849E+01,8.752E+01,2.500E+00
1.10E+01,1.585E+01,-3.856E+01,8.211E+01,2.500E+00
1.20E+01,1.660E+01,-3.852E+01,9.235E+01,2.500E+00
1.30E+01,1.738E+01,-3.727E+01,9.074E+01,2.500E+00
1.40E+01,1.820E+01,-3.815E+01,8.905E+01,2.500E+00
1.50E+01,1.905E+01,-3.756E+01,8.739E+01,2.500E+00
1.60E+01,1.995E+01,-3.719E+01,8.766E+01,2.500E+00
1.70E+01,2.089E+01,-3.656E+01,8.958E+01,2.500E+00
1.80E+01,2.188E+01,-3.602E+01,8.754E+01,2.500E+00
1.90E+01,2.291E+01,-3.547E+01,9.015E+01,2.500E+00
2.00E+01,2.399E+01,-3.440E+01,8.907E+01,2.500E+00
2.10E+01,2.512E+01,-3.590E+01,8.739E+01,2.500E+00
2.20E+01,2.630E+01,-3.445E+01,8.935E+01,2.500E+00
2.30E+01,2.754E+01,-3.338E+01,8.837E+01,2.500E+00
2.40E+01,2.884E+01,-3.345E+01,9.195E+01,2.500E+00
2.50E+01,3.020E+01,-3.304E+01,8.762E+01,2.500E+00
2.60E+01,3.162E+01,-3.241E+01,8.627E+01,2.500E+00
2.70E+01,3.311E+01,-3.273E+01,8.658E+01,2.500E+00
2.80E+01,3.467E+01,-3.215E+01,8.970E+01,2.500E+00
2.90E+01,3.631E+01,-3.141E+01,8.579E+01,2.500E+00
3.00E+01,3.802E+01,-3.221E+01,8.797E+01,2.500E+00
3.10E+01,3.981E+01,-3.061E+01,8.711E+01,2.500E+00
3.20E+01,4.169E+01,-3.071E+01,8.443E+01,2.500E+00
3.30E+01,4.365E+01,-3.011E+01,8.437E+01,2.500E+00
3.40E+01,4.571E+01,-3.020E+01,8.639E+01,2.500E+00
3.50E+01,4.786E+01,-2.935E+01,8.608E+01,2.500E+00
3.60E+01,5.012E+01,-2.953E+01,9.003E+01,2.500E+00
3.70E+01,5.248E+01,-2.854E+01,8.585E+01,2.500E+00
3.80E+01,5.495E+01,-2.806E+01,8.424E+01,2.500E+00
3.90E+01,5.754E+01,-2.806E+01,8.566E+01,2.500E+00
4.00E+01,6.026E+01,-2.776E+01,8.531E+01,2.500E+00
4.10E+01,6.310E+01,-2.727E+01,8.390E+01,2.500E+00
4.20E+01,6.607E+01,-2.651E+01,8.623E+01,2.500E+00
4.30E+01,6.918E+01,-2.665E+01,8.977E+01,2.500E+00
4.40E+01,7.244E+01,-2.571E+01,8.396E+01,2.500E+00
4.50E+01,7.586E+01,-2.574E+01,8.544E+01,2.500E+00
4.60E+01,7.943E+01,-2.490E+01,8.559E+01,2.500E+00
4.70E+01,8.318E+01,-2.494E+01,8.702E+01,2.500E+00
4.80E+01,8.710E+01,-2.420E+01,8.876E+01,2.500E+00
4.90E+01,9.120E+01,-2.389E+01,8.778E+01,2.500E+00
5.00E+01,9.550E+01,-2.375E+01,8.779E+01,2.500E+00
5.10E+01,1.000E+02,-2.320E+01,8.574E+01,2.500E+00
5.20E+01,1.047E+02,-2.272E+01,8.697E+01,2.500E+00
5.30E+01,1.096E+02,-2.247E+01,8.715E+01,2.500E+00
5.40E+01,1.148E+02,-2.210E+01,8.615E+01,2.500E+00
5.50E+01,1.202E+02,-2.163E+01,8.594E+01,2.500E+00
5.60E+01,1.259E+02,-2.116E+01,8.640E+01,2.500E+00
5.70E+01,1.318E+02,-2.063E+01,8.497E+01,2.500E+00
5.80E+01,1.380E+02,-2.024E+01,8.563E+01,2.500E+00
5.90E+01,1.445E+02,-2.017E+01,8.507E+01,2.500E+00
6.00E+01,1.514E+02,-1.987E+01,8.632E+01,2.500E+00
6.10E+01,1.585E+02,-1.911E+01,8.549E+01,2.500E+00
6.20E+01,1.660E+02,-1.888E+01,8.547E+01,2.500E+00
6.30E+01,1.738E+02,-1.832E+01,8.553E+01,2.500E+00
6.40E+01,1.820E+02,-1.809E+01,8.468E+01,2.500E+00
6.50E+01,1.905E+02,-1.778E+01,8.495E+01,2.500E+00
6.60E+01,1.995E+02,-1.733E+01,8.501E+01,2.500E+00
6.70E+01,2.089E+02,-1.674E+01,8.387E+01,2.500E+00
6.80E+01,2.188E+02,-1.642E+01,8.539E+01,2.500E+00
6.90E+01,2.291E+02,-1.610E+01,8.459E+01,2.500E+00
7.00E+01,2.399E+02,-1.564E+01,8.461E+01,2.500E+00
7.10E+01,2.512E+02,-1.546E+01,8.293E+01,2.500E+00
7.20E+01,2.630E+02,-1.474E+01,8.338E+01,2.500E+00
7.30E+01,2.754E+02,-1.446E+01,8.354E+01,2.500E+00
7.40E+01,2.884E+02,-1.404E+01,8.255E+01,2.500E+00
7.50E+01,3.020E+02,-1.381E+01,8.261E+01,2.500E+00
7.60E+01,3.162E+02,-1.324E+01,8.241E+01,2.500E+00
7.70E+01,3.311E+02,-1.299E+01,8.224E+01,2.500E+00
7.80E+01,3.467E+02,-1.252E+01,8.219E+01,2.500E+00
7.90E+01,3.631E+02,-1.224E+01,8.155E+01,2.500E+00
8.00E+01,3.802E+02,-1.161E+01,8.175E+01,2.500E+00
8.10E+01,3.981E+02,-1.141E+01,8.061E+01,2.500E+00
8.20E+01,4.169E+02,-1.098E+01,8.031E+01,2.500E+00
8.30E+01,4.365E+02,-1.069E+01,7.998E+01,2.500E+00
8.40E+01,4.571E+02,-1.018E+01,8.045E+01,2.500E+00
8.50E+01,4.786E+02,-9.816E+00,7.930E+01,2.500E+00
8.60E+01,5.012E+02,-9.495E+00,7.887E+01,2.500E+00
8.70E+01,5.248E+02,-9.101E+00,7.820E+01,2.500E+00
8.80E+01,5.495E+02,-8.761E+00,7.783E+01,2.500E+00
8.90E+01,5.754E+02,-8.346E+00,7.705E+01,2.500E+00
9.00E+01,6.026E+02,-7.916E+00,7.670E+01,2.500E+00
9.10E+01,6.310E+02,-7.563E+00,7.638E+01,2.500E+00
9.20E+01,6.607E+02,-7.250E+00,7.547E+01,2.500E+00
9.30E+01,6.918E+02,-6.963E+00,7.503E+01,2.500E+00
9.40E+01,7.244E+02,-6.590E+00,7.418E+01,2.500E+00
9.50E+01,7.586E+02,-6.203E+00,7.379E+01,2.500E+00
9.60E+01,7.943E+02,-5.861E+00,7.333E+01,2.500E+00
9.70E+01,8.318E+02,-5.529E+00,7.292E+01,2.500E+00
9.80E+01,8.710E+02,-5.152E+00,7.224E+01,2.500E+00
9.90E+01,9.120E+02,-4.751E+00,7.128E+01,2.500E+00
1.00E+02,9.550E+02,-4.469E+00,7.077E+01,2.500E+00
1.01E+02,1.000E+03,-4.044E+00,6.980E+01,2.500E+00
1.02E+02,1.047E+03,-3.683E+00,6.899E+01,2.500E+00
1.03E+02,1.096E+03,-3.386E+00,6.856E+01,2.500E+00
1.04E+02,1.148E+03,-3.098E+00,6.778E+01,2.500E+00
1.05E+02,1.202E+03,-2.729E+00,6.645E+01,2.500E+00
1.06E+02,1.259E+03,-2.411E+00,6.577E+01,2.500E+00
1.07E+02,1.318E+03,-2.120E+00,6.513E+01,2.500E+00
1.08E+02,1.380E+03,-1.777E+00,6.458E+01,2.500E+00
1.09E+02,1.445E+03,-1.420E+00,6.370E+01,2.500E+00
1.10E+02,1.514E+03,-1.164E+00,6.290E+01,2.500E+00
1.11E+02,1.585E+03,-8.231E-01,6.165E+01,2.500E+00
1.12E+02,1.660E+03,-5.799E-01,6.113E+01,2.500E+00
1.13E+02,1.738E+03,-2.208E-01,6.018E+01,2.500E+00
1.14E+02,1.820E+03,5.823E-02,5.922E+01,2.500E+00
1.15E+02,1.905E+03,3.490E-01,5.869E+01,2.500E+00
1.16E+02,1.995E+03,7.325E-01,5.739E+01,2.500E+00
1.17E+02,2.089E+03,1.010E+00,5.669E+01,2.500E+00
1.18E+02,2.188E+03,1.220E+00,5.584E+01,2.500E+00
1.19E+02,2.291E+03,1.575E+00,5.473E+01,2.500E+00
1.20E+02,2.399E+03,1.833E+00,5.364E+01,2.500E+00
1.21E+02,2.512E+03,2.138E+00,5.260E+01,2.500E+00
1.22E+02,2.630E+03,2.302E+00,5.187E+01,2.500E+00
1.23E+02,2.754E+03,2.605E+00,5.072E+01,2.500E+00
1.24E+02,2.884E+03,2.853E+00,4.972E+01,2.500E+00
1.25E+02,3.020E+03,3.146E+00,4.853E+01,2.500E+00
1.26E+02,3.162E+03,3.401E+00,4.761E+01,2.500E+00
1.27E+02,3.311E+03,3.690E+00,4.643E+01,2.500E+00
1.28E+02,3.467E+03,3.946E+00,4.524E+01,2.500E+00
1.29E+02,3.631E+03,4.181E+00,4.401E+01,2.500E+00
1.30E+02,3.802E+03,4.442E+00,4.278E+01,2.500E+00
1.31E+02,3.981E+03,4.701E+00,4.139E+01,2.500E+00
1.32E+02,4.169E+03,4.941E+00,3.997E+01,2.500E+00
1.33E+02,4.365E+03,5.174E+00,3.887E+01,2.500E+00
1.34E+02,4.571E+03,5.424E+00,3.717E+01,2.500E+00
1.35E+02,4.786E+03,5.645E+00,3.566E+01,2.500E+00
1.36E+02,5.012E+03,5.920E+00,3.411E+01,2.500E+00
1.37E+02,5.248E+03,6.143E+00,3.248E+01,2.500E+00
1.38E+02,5.495E+03,6.348E+00,3.070E+01,2.500E+00
1.39E+02,5.754E+03,6.539E+00,2.909E+01,2.500E+00
1.40E+02,6.026E+03,6.749E+00,2.728E+01,2.500E+00
1.41E+02,6.310E+03,6.943E+00,2.538E+01,2.500E+00
1.42E+02,6.607E+03,7.142E+00,2.346E+01,2.500E+00
1.43E+02,6.918E+03,7.296E+00,2.158E+01,2.500E+00
1.44E+02,7.244E+03,7.469E+00,1.950E+01,2.500E+00
1.45E+02,7.586E+03,7.600E+00,1.744E+01,2.500E+00
1.46E+02,7.943E+03,7.752E+00,1.541E+01,2.500E+00
1.47E+02,8.318E+03,7.876E+00,1.309E+01,2.500E+00
1.48E+02,8.710E+03,7.992E+00,1.087E+01,2.500E+00
1.49E+02,9.120E+03,8.066E+00,8.634E+00,2.500E+00
1.50E+02,9.550E+03,8.159E+00,6.305E+00,2.500E+00
1.51E+02,1.000E+04,8.234E+00,4.095E+00,2.500E+00
