in Sa,Frequency in Hz,Gain in dB,Phase in °,Amplitude in Vpp
1.00E+00,1.000E+01,7.072E+00,-1.243E+02,2.500E+00
2.00E+00,1.047E+01,7.201E+00,-1.260E+02,2.500E+00
3.00E+00,1.096E+01,7.323E+00,-1.268E+02,2.500E+00
4.00E+00,1.148E+01,7.485E+00,-1.282E+02,2.500E+00
5.00E+00,1.202E+01,7.558E+00,-1.288E+02,2.500E+00
6.00E+00,1.259E+01,7.726E+00,-1.309E+02,2.500E+00
7.00E+00,1.318E+01,7.871E+00,-1.321E+02,2.500E+00
8.00E+00,1.380E+01,7.995E+00,-1.332E+02,2.500E+00
9.00E+00,1.445E+01,8.025E+00,-1.336E+02,2.500E+00
1.00E+01,1.514E+01,8.201E+00,-1.355E+02,2.500E+00
1.10E+01,1.585E+01,8.250E+00,-1.360E+02,2.500E+00
1.20E+01,1.660E+01,8.324E+00,-1.373E+02,2.500E+00
1.30E+01,1.738E+01,8.414E+00,-1.381E+02,2.500E+00
1.40E+01,1.820E+01,8.546E+00,-1.395E+02,2.500E+00
1.50E+01,1.905E+01,8.578E+00,-1.407E+02,2.500E+00
1.60E+01,1.995E+01,8.648E+00,-1.410E+02,2.500E+00
1.70E+01,2.089E+01,8.704E+00,-1.412E+02,2.500E+00
1.80E+01,2.188E+01,8.798E+00,-1.423E+02,2.500E+00
1.90E+01,2.291E+01,8.886E+00,-1.429E+02,2.500E+00
2.00E+01,2.399E+01,8.984E+00,-1.450E+02,2.500E+00
2.10E+01,2.512E+01,9.009E+00,-1.444E+02,2.500E+00
2.20E+01,2.630E+01,9.069E+00,-1.454E+02,2.500E+00
2.30E+01,2.754E+01,9.131E+00,-1.461E+02,2.500E+00
2.40E+01,2.884E+01,9.269E+00,-1.483E+02,2.500E+00
2.50E+01,3.020E+01,7.634E+00,-1.678E+02,2.500E+00
2.60E+01,3.162E+01,7.669E+00,-1.683E+02,2.500E+00
2.70E+01,3.311E+01,7.653E+00,-1.688E+02,2.500E+00
2.80E+01,3.467E+01,7.680E+00,-1.694E+02,2.500E+00
2.90E+01,3.631E+01,7.701E+00,-1.699E+02,2.500E+00
3.00E+01,3.802E+01,7.729E+00,-1.705E+02,2.500E+00
3.10E+01,3.981E+01,7.731E+00,-1.708E+02,2.500E+00
3.20E+01,4.169E+01,7.742E+00,-1.715E+02,2.500E+00
3.30E+01,4.365E+01,7.767E+00,-1.716E+02,2.500E+00
3.40E+01,4.571E+01,7.769E+00,-1.721E+02,2.500E+00
3.50E+01,4.786E+01,7.744E+00,-1.725E+02,2.500E+00
3.60E+01,5.012E+01,7.793E+00,-1.729E+02,2.500E+00
3.70E+01,5.248E+01,7.795E+00,-1.731E+02,2.500E+00
3.80E+01,5.495E+01,7.789E+00,-1.737E+02,2.500E+00
3.90E+01,5.754E+01,7.791E+00,-1.739E+02,2.500E+00
4.00E+01,6.026E+01,7.801E+00,-1.743E+02,2.500E+00
4.10E+01,6.310E+01,7.789E+00,-1.747E+02,2.500E+00
4.20E+01,6.607E+01,7.815E+00,-1.748E+02,2.500E+00
4.30E+01,6.918E+01,7.789E+00,-1.754E+02,2.500E+00
4.40E+01,7.244E+01,7.808E+00,-1.756E+02,2.500E+00
4.50E+01,7.586E+01,7.826E+00,-1.757E+02,2.500E+00
4.60E+01,7.943E+01,7.879E+00,-1.761E+02,2.500E+00
4.70E+01,8.318E+01,7.857E+00,-1.763E+02,2.500E+00
4.80E+01,8.710E+01,7.886E+00,-1.765E+02,2.500E+00
4.90E+01,9.120E+01,7.863E+00,-1.767E+02,2.500E+00
5.00E+01,9.550E+01,7.873E+00,-1.768E+02,2.500E+00
5.10E+01,1.000E+02,7.873E+00,-1.771E+02,2.500E+00
5.20E+01,1.047E+02,7.888E+00,-1.774E+02,2.500E+00
5.30E+01,1.096E+02,7.902E+00,-1.777E+02,2.500E+00
5.40E+01,1.148E+02,7.917E+00,-1.778E+02,2.500E+00
5.50E+01,1.202E+02,7.909E+00,-1.781E+02,2.500E+00
5.60E+01,1.259E+02,7.910E+00,-1.782E+02,2.500E+00
5.70E+01,1.318E+02,7.898E+00,-1.785E+02,2.500E+00
5.80E+01,1.380E+02,7.902E+00,-1.787E+02,2.500E+00
5.90E+01,1.445E+02,7.909E+00,-1.788E+02,2.500E+00
6.00E+01,1.514E+02,7.902E+00,-1.790E+02,2.500E+00
6.10E+01,1.585E+02,7.892E+00,-1.793E+02,2.500E+00
6.20E+01,1.660E+02,7.899E+00,-1.795E+02,2.500E+00
6.30E+01,1.738E+02,7.902E+00,-1.797E+02,2.500E+00
6.40E+01,1.820E+02,7.899E+00,-1.798E+02,2.500E+00
6.50E+01,1.905E+02,7.881E+00,1.800E+02,2.500E+00
6.60E+01,1.995E+02,7.876E+00,1.798E+02,2.500E+00
6.70E+01,2.089E+02,7.886E+00,1.797E+02,2.500E+00
6.80E+01,2.188E+02,7.894E+00,1.793E+02,2.500E+00
6.90E+01,2.291E+02,7.914E+00,1.791E+02,2.500E+00
7.00E+01,2.399E+02,7.922E+00,1.789E+02,2.500E+00
7.10E+01,2.512E+02,7.916E+00,1.787E+02,2.500E+00
7.20E+01,2.630E+02,7.892E+00,1.785E+02,2.500E+00
7.30E+01,2.754E+02,7.879E+00,1.783E+02,2.500E+00
7.40E+01,2.884E+02,7.869E+00,1.781E+02,2.500E+00
7.50E+01,3.020E+02,7.873E+00,1.779E+02,2.500E+00
7.60E+01,3.162E+02,7.869E+00,1.776E+02,2.500E+00
7.70E+01,3.311E+02,7.860E+00,1.774E+02,2.500E+00
7.80E+01,3.467E+02,7.851E+00,1.771E+02,2.500E+00
7.90E+01,3.631E+02,7.848E+00,1.768E+02,2.500E+00
8.00E+01,3.802E+02,7.841E+00,1.766E+02,2.500E+00
8.10E+01,3.981E+02,7.809E+00,1.765E+02,2.500E+00
8.20E+01,4.169E+02,7.794E+00,1.762E+02,2.500E+00
8.30E+01,4.365E+02,7.782E+00,1.760E+02,2.500E+00
8.40E+01,4.571E+02,7.788E+00,1.756E+02,2.500E+00
8.50E+01,4.786E+02,7.780E+00,1.753E+02,2.500E+00
8.60E+01,5.012E+02,7.773E+00,1.750E+02,2.500E+00
8.70E+01,5.248E+02,7.754E+00,1.748E+02,2.500E+00
8.80E+01,5.495E+02,7.718E+00,1.745E+02,2.500E+00
8.90E+01,5.754E+02,7.686E+00,1.742E+02,2.500E+00
9.00E+01,6.026E+02,7.669E+00,1.739E+02,2.500E+00
9.10E+01,6.310E+02,7.641E+00,1.736E+02,2.500E+00
9.20E+01,6.607E+02,7.608E+00,1.733E+02,2.500E+00
9.30E+01,6.918E+02,7.574E+00,1.729E+02,2.500E+00
9.40E+01,7.244E+02,7.537E+00,1.725E+02,2.500E+00
9.50E+01,7.586E+02,7.527E+00,1.723E+02,2.500E+00
9.60E+01,7.943E+02,7.479E+00,1.720E+02,2.500E+00
9.70E+01,8.318E+02,7.423E+00,1.717E+02,2.500E+00
9.80E+01,8.710E+02,7.370E+00,1.714E+02,2.500E+00
9.90E+01,9.120E+02,7.328E+00,1.710E+02,2.500E+00
1.00E+02,9.550E+02,7.279E+00,1.706E+02,2.500E+00
1.01E+02,1.000E+03,7.242E+00,1.704E+02,2.500E+00
1.02E+02,1.047E+03,7.203E+00,1.700E+02,2.500E+00
1.03E+02,1.096E+03,7.161E+00,1.698E+02,2.500E+00
1.04E+02,1.148E+03,7.078E+00,1.696E+02,2.500E+00
1.05E+02,1.202E+03,6.995E+00,1.693E+02,2.500E+00
1.06E+02,1.259E+03,6.951E+00,1.691E+02,2.500E+00
1.07E+02,1.318E+03,6.899E+00,1.689E+02,2.500E+00
1.08E+02,1.380E+03,6.817E+00,1.686E+02,2.500E+00
1.09E+02,1.445E+03,6.739E+00,1.682E+02,2.500E+00
1.10E+02,1.514E+03,6.663E+00,1.682E+02,2.500E+00
1.11E+02,1.585E+03,6.564E+00,1.681E+02,2.500E+00
1.12E+02,1.660E+03,6.543E+00,1.682E+02,2.500E+00
1.13E+02,1.738E+03,6.449E+00,1.679E+02,2.500E+00
1.14E+02,1.820E+03,6.326E+00,1.675E+02,2.500E+00
1.15E+02,1.905E+03,6.250E+00,1.676E+02,2.500E+00
1.16E+02,1.995E+03,6.144E+00,1.675E+02,2.500E+00
1.17E+02,2.089E+03,6.066E+00,1.675E+02,2.500E+00
1.18E+02,2.188E+03,5.980E+00,1.675E+02,2.500E+00
1.19E+02,2.291E+03,5.885E+00,1.675E+02,2.500E+00
1.20E+02,2.399E+03,5.793E+00,1.677E+02,2.500E+00
1.21E+02,2.512E+03,5.706E+00,1.677E+02,2.500E+00
1.22E+02,2.630E+03,5.639E+00,1.678E+02,2.500E+00
1.23E+02,2.754E+03,5.540E+00,1.680E+02,2.500E+00
1.24E+02,2.884E+03,5.450E+00,1.687E+02,2.500E+00
1.25E+02,3.020E+03,5.402E+00,1.691E+02,2.500E+00
1.26E+02,3.162E+03,5.313E+00,1.689E+02,2.500E+00
1.27E+02,3.311E+03,5.162E+00,1.683E+02,2.500E+00
1.28E+02,3.467E+03,5.129E+00,1.693E+02,2.500E+00
1.29E+02,3.631E+03,5.055E+00,1.698E+02,2.500E+00
1.30E+02,3.802E+03,4.976E+00,1.699E+02,2.500E+00
1.31E+02,3.981E+03,4.937E+00,1.705E+02,2.500E+00
1.32E+02,4.169E+03,4.849E+00,1.711E+02,2.500E+00
1.33E+02,4.365E+03,4.822E+00,1.718E+02,2.500E+00
1.34E+02,4.571E+03,4.791E+00,1.726E+02,2.500E+00
1.35E+02,4.786E+03,4.768E+00,1.737E+02,2.500E+00
1.36E+02,5.012E+03,4.634E+00,1.727E+02,2.500E+00
1.37E+02,5.248E+03,4.587E+00,1.729E+02,2.500E+00
1.38E+02,5.495E+03,4.575E+00,1.741E+02,2.500E+00
1.39E+02,5.754E+03,4.530E+00,1.747E+02,2.500E+00
1.40E+02,6.026E+03,4.490E+00,1.751E+02,2.500E+00
1.41E+02,6.310E+03,4.423E+00,1.746E+02,2.500E+00
1.42E+02,6.607E+03,4.338E+00,1.740E+02,2.500E+00
1.43E+02,6.918E+03,4.362E+00,1.758E+02,2.500E+00
1.44E+02,7.244E+03,4.311E+00,1.755E+02,2.500E+00
1.45E+02,7.586E+03,4.282E+00,1.762E+02,2.500E+00
1.46E+02,7.943E+03,4.256E+00,1.762E+02,2.500E+00
1.47E+02,8.318E+03,4.202E+00,1.760E+02,2.500E+00
1.48E+02,8.710E+03,4.187E+00,1.764E+02,2.500E+00
1.49E+02,9.120E+03,4.148E+00,1.762E+02,2.500E+00
1.50E+02,9.550E+03,4.113E+00,1.757E+02,2.500E+00
1.51E+02,1.000E+04,4.088E+00,1.759E+02,2.500E+00
