in Sa,Frequency in Hz,Gain in dB,Phase in °,Amplitude in Vpp
1.00E+00,1.000E+01,-6.061E+01,1.585E+02,2.500E+00
2.00E+00,1.047E+01,-6.017E+01,1.648E+02,2.500E+00
3.00E+00,1.096E+01,-5.976E+01,1.714E+02,2.500E+00
4.00E+00,1.148E+01,-5.970E+01,1.749E+02,2.500E+00
5.00E+00,1.202E+01,-6.005E+01,1.654E+02,2.500E+00
6.00E+00,1.259E+01,-6.053E+01,1.615E+02,2.500E+00
7.00E+00,1.318E+01,-6.161E+01,1.511E+02,2.500E+00
8.00E+00,1.380E+01,-6.113E+01,1.616E+02,2.500E+00
9.00E+00,1.445E+01,-6.097E+01,1.599E+02,2.500E+00
1.00E+01,1.514E+01,-6.154E+01,1.647E+02,2.500E+00
1.10E+01,1.585E+01,-6.083E+01,1.540E+02,2.500E+00
1.20E+01,1.660E+01,-6.118E+01,1.557E+02,2.500E+00
1.30E+01,1.738E+01,-6.055E+01,1.540E+02,2.500E+00
1.40E+01,1.820E+01,-6.116E+01,1.457E+02,2.500E+00
1.50E+01,1.905E+01,-6.225E+01,1.432E+02,2.500E+00
1.60E+01,1.995E+01,-6.075E+01,1.471E+02,2.500E+00
1.70E+01,2.089E+01,-6.008E+01,1.429E+02,2.500E+00
1.80E+01,2.188E+01,-5.997E+01,1.408E+02,2.500E+00
1.90E+01,2.291E+01,-6.139E+01,1.360E+02,2.500E+00
2.00E+01,2.399E+01,-6.234E+01,1.415E+02,2.500E+00
2.10E+01,2.512E+01,-6.003E+01,1.491E+02,2.500E+00
2.20E+01,2.630E+01,-6.042E+01,1.313E+02,2.500E+00
2.30E+01,2.754E+01,-6.019E+01,1.412E+02,2.500E+00
2.40E+01,2.884E+01,-6.212E+01,1.367E+02,2.500E+00
2.50E+01,3.020E+01,-7.988E+01,8.290E+01,2.500E+00
2.60E+01,3.162E+01,-7.722E+01,1.257E+02,2.500E+00
2.70E+01,3.311E+01,-7.830E+01,1.319E+02,2.500E+00
2.80E+01,3.467E+01,-7.939E+01,-1.605E+02,2.500E+00
2.90E+01,3.631E+01,-6.996E+01,7.978E+01,2.500E+00
3.00E+01,3.802E+01,-7.520E+01,5.328E+01,2.500E+00
3.10E+01,3.981E+01,-6.771E+01,1.447E+02,2.500E+00
3.20E+01,4.169E+01,-7.403E+01,2.963E+01,2.500E+00
3.30E+01,4.365E+01,-7.703E+01,-9.393E+01,2.500E+00
3.40E+01,4.571E+01,-6.461E+01,1.604E+02,2.500E+00
3.50E+01,4.786E+01,-6.588E+01,1.263E+02,2.500E+00
3.60E+01,5.012E+01,-7.098E+01,-1.520E+02,2.500E+00
3.70E+01,5.248E+01,-6.814E+01,5.178E+01,2.500E+00
3.80E+01,5.495E+01,-6.801E+01,-1.438E+02,2.500E+00
3.90E+01,5.754E+01,-6.944E+01,4.779E+01,2.500E+00
4.00E+01,6.026E+01,-6.618E+01,1.397E+02,2.500E+00
4.10E+01,6.310E+01,-7.100E+01,3.028E+01,2.500E+00
4.20E+01,6.607E+01,-7.345E+01,-2.862E+01,2.500E+00
4.30E+01,6.918E+01,-7.386E+01,-1.500E+02,2.500E+00
4.40E+01,7.244E+01,-7.651E+01,2.079E+01,2.500E+00
4.50E+01,7.586E+01,-7.570E+01,1.446E+02,2.500E+00
4.60E+01,7.943E+01,-8.304E+01,-1.569E+02,2.500E+00
4.70E+01,8.318E+01,-7.224E+01,1.515E+02,2.500E+00
4.80E+01,8.710E+01,-7.605E+01,1.776E+02,2.500E+00
4.90E+01,9.120E+01,-7.522E+01,1.539E+02,2.500E+00
5.00E+01,9.550E+01,-7.285E+01,1.535E+02,2.500E+00
5.10E+01,1.000E+02,-8.307E+01,1.444E+02,2.500E+00
5.20E+01,1.047E+02,-7.377E+01,1.565E+02,2.500E+00
5.30E+01,1.096E+02,-7.897E+01,1.387E+02,2.500E+00
5.40E+01,1.148E+02,-8.547E+01,-1.144E+02,2.500E+00
5.50E+01,1.202E+02,-7.297E+01,-4.502E+01,2.500E+00
5.60E+01,1.259E+02,-7.988E+01,-1.628E+02,2.500E+00
5.70E+01,1.318E+02,-8.973E+01,1.384E+02,2.500E+00
5.80E+01,1.380E+02,-8.268E+01,-1.002E+02,2.500E+00
5.90E+01,1.445E+02,-7.407E+01,5.778E+01,2.500E+00
6.00E+01,1.514E+02,-7.938E+01,-4.941E+01,2.500E+00
6.10E+01,1.585E+02,-7.474E+01,-5.329E+01,2.500E+00
6.20E+01,1.660E+02,-8.658E+01,5.894E+01,2.500E+00
6.30E+01,1.738E+02,-7.164E+01,1.800E+02,2.500E+00
6.40E+01,1.820E+02,-7.475E+01,1.635E+02,2.500E+00
6.50E+01,1.905E+02,-7.322E+01,6.300E+01,2.500E+00
6.60E+01,1.995E+02,-7.083E+01,1.268E+00,2.500E+00
6.70E+01,2.089E+02,-6.760E+01,-1.772E+02,2.500E+00
6.80E+01,2.188E+02,-7.247E+01,6.449E+00,2.500E+00
6.90E+01,2.291E+02,-7.246E+01,4.530E+01,2.500E+00
7.00E+01,2.399E+02,-8.131E+01,7.583E+01,2.500E+00
7.10E+01,2.512E+02,-6.975E+01,1.519E+02,2.500E+00
7.20E+01,2.630E+02,-8.588E+01,-1.573E+01,2.500E+00
7.30E+01,2.754E+02,-7.150E+01,1.384E+02,2.500E+00
7.40E+01,2.884E+02,-7.027E+01,1.658E+02,2.500E+00
7.50E+01,3.020E+02,-6.906E+01,-1.079E+02,2.500E+00
7.60E+01,3.162E+02,-7.224E+01,2.195E+01,2.500E+00
7.70E+01,3.311E+02,-7.141E+01,4.767E+01,2.500E+00
7.80E+01,3.467E+02,-7.526E+01,2.072E+00,2.500E+00
7.90E+01,3.631E+02,-6.793E+01,1.447E+02,2.500E+00
8.00E+01,3.802E+02,-6.900E+01,-1.575E+02,2.500E+00
8.10E+01,3.981E+02,-6.903E+01,-1.259E+01,2.500E+00
8.20E+01,4.169E+02,-7.324E+01,-1.165E-01,2.500E+00
8.30E+01,4.365E+02,-7.134E+01,-7.782E+01,2.500E+00
8.40E+01,4.571E+02,-6.795E+01,-1.202E+02,2.500E+00
8.50E+01,4.786E+02,-7.120E+01,1.254E+02,2.500E+00
8.60E+01,5.012E+02,-6.736E+01,2.612E+01,2.500E+00
8.70E+01,5.248E+02,-6.393E+01,-1.085E+00,2.500E+00
8.80E+01,5.495E+02,-7.352E+01,-1.099E+02,2.500E+00
8.90E+01,5.754E+02,-6.568E+01,9.436E+01,2.500E+00
9.00E+01,6.026E+02,-6.816E+01,-1.414E+02,2.500E+00
9.10E+01,6.310E+02,-7.956E+01,1.412E+02,2.500E+00
9.20E+01,6.607E+02,-7.027E+01,6.318E+01,2.500E+00
9.30E+01,6.918E+02,-6.815E+01,-1.596E+02,2.500E+00
9.40E+01,7.244E+02,-7.184E+01,-6.790E+01,2.500E+00
9.50E+01,7.586E+02,-7.137E+01,1.698E+02,2.500E+00
9.60E+01,7.943E+02,-6.877E+01,1.366E+02,2.500E+00
9.70E+01,8.318E+02,-7.512E+01,9.723E+01,2.500E+00
9.80E+01,8.710E+02,-7.015E+01,-3.472E+01,2.500E+00
9.90E+01,9.120E+02,-8.679E+01,7.832E+01,2.500E+00
1.00E+02,9.550E+02,-7.097E+01,-1.716E+01,2.500E+00
1.01E+02,1.000E+03,-7.147E+01,1.420E+02,2.500E+00
1.02E+02,1.047E+03,-7.389E+01,8.354E+01,2.500E+00
1.03E+02,1.096E+03,-8.136E+01,-5.861E+01,2.500E+00
1.04E+02,1.148E+03,-6.855E+01,-1.071E+02,2.500E+00
1.05E+02,1.202E+03,-7.406E+01,-9.809E+01,2.500E+00
1.06E+02,1.259E+03,-6.967E+01,8.696E+01,2.500E+00
1.07E+02,1.318E+03,-9.888E+01,5.262E+01,2.500E+00
1.08E+02,1.380E+03,-7.536E+01,-7.177E+01,2.500E+00
1.09E+02,1.445E+03,-6.932E+01,1.178E+02,2.500E+00
1.10E+02,1.514E+03,-8.548E+01,-9.757E+01,2.500E+00
1.11E+02,1.585E+03,-7.501E+01,-7.379E+01,2.500E+00
1.12E+02,1.660E+03,-7.809E+01,-3.823E+01,2.500E+00
1.13E+02,1.738E+03,-7.536E+01,-1.055E+02,2.500E+00
1.14E+02,1.820E+03,-7.172E+01,-1.678E+01,2.500E+00
1.15E+02,1.905E+03,-7.957E+01,-1.682E+02,2.500E+00
1.16E+02,1.995E+03,-7.219E+01,1.326E+01,2.500E+00
1.17E+02,2.089E+03,-7.725E+01,-3.459E+01,2.500E+00
1.18E+02,2.188E+03,-7.928E+01,-1.379E+01,2.500E+00
1.19E+02,2.291E+03,-8.153E+01,-1.316E+02,2.500E+00
1.20E+02,2.399E+03,-7.427E+01,-1.155E+02,2.500E+00
1.21E+02,2.512E+03,-7.431E+01,-2.008E+01,2.500E+00
1.22E+02,2.630E+03,-8.082E+01,8.238E+01,2.500E+00
1.23E+02,2.754E+03,-7.276E+01,-1.214E+02,2.500E+00
1.24E+02,2.884E+03,-7.558E+01,-7.792E+01,2.500E+00
1.25E+02,3.020E+03,-7.459E+01,-5.565E+01,2.500E+00
1.26E+02,3.162E+03,-7.196E+01,-1.006E+02,2.500E+00
1.27E+02,3.311E+03,-9.425E+01,-8.549E+01,2.500E+00
1.28E+02,3.467E+03,-7.450E+01,-3.428E+01,2.500E+00
1.29E+02,3.631E+03,-7.175E+01,-1.392E+02,2.500E+00
1.30E+02,3.802E+03,-7.714E+01,6.602E+01,2.500E+00
1.31E+02,3.981E+03,-7.632E+01,-9.427E+01,2.500E+00
1.32E+02,4.169E+03,-9.268E+01,5.070E+01,2.500E+00
1.33E+02,4.365E+03,-8.037E+01,-6.122E+01,2.500E+00
1.34E+02,4.571E+03,-7.524E+01,2.174E+01,2.500E+00
1.35E+02,4.786E+03,-9.823E+01,4.104E+01,2.500E+00
1.36E+02,5.012E+03,-6.999E+01,-1.020E+02,2.500E+00
1.37E+02,5.248E+03,-7.422E+01,-8.820E+01,2.500E+00
1.38E+02,5.495E+03,-7.887E+01,5.388E+01,2.500E+00
1.39E+02,5.754E+03,-7.254E+01,-1.023E+02,2.500E+00
1.40E+02,6.026E+03,-7.200E+01,-8.906E+01,2.500E+00
1.41E+02,6.310E+03,-8.197E+01,-6.395E+01,2.500E+00
1.42E+02,6.607E+03,-7.012E+01,-7.307E+01,2.500E+00
1.43E+02,6.918E+03,-6.977E+01,-7.849E+01,2.500E+00
1.44E+02,7.244E+03,-7.616E+01,-6.994E+01,2.500E+00
1.45E+02,7.586E+03,-6.957E+01,-9.551E+01,2.500E+00
1.46E+02,7.943E+03,-7.433E+01,-9.820E+01,2.500E+00
1.47E+02,8.318E+03,-7.097E+01,-1.037E+02,2.500E+00
1.48E+02,8.710E+03,-6.948E+01,-9.449E+01,2.500E+00
1.49E+02,9.120E+03,-6.989E+01,-9.895E+01,2.500E+00
1.50E+02,9.550E+03,-7.708E+01,-9.095E+01,2.500E+00
1.51E+02,1.000E+04,-6.899E+01,-1.153E+02,2.500E+00
1.52E+02,1.047E+04,-7.125E+01,-1.169E+02,2.500E+00
1.53E+02,1.096E+04,-6.798E+01,-1.233E+02,2.500E+00
1.54E+02,1.148E+04,-6.772E+01,-1.050E+02,2.500E+00
1.55E+02,1.202E+04,-6.814E+01,-1.179E+02,2.500E+00
1.56E+02,1.259E+04,-6.678E+01,-1.166E+02,2.500E+00
1.57E+02,1.318E+04,-6.955E+01,-1.331E+02,2.500E+00
1.58E+02,1.380E+04,-6.559E+01,-1.332E+02,2.500E+00
1.59E+02,1.445E+04,-6.678E+01,-1.481E+02,2.500E+00
1.60E+02,1.514E+04,-6.719E+01,-1.506E+02,2.500E+00
1.61E+02,1.585E+04,-6.470E+01,-1.445E+02,2.500E+00
1.62E+02,1.660E+04,-6.477E+01,-1.497E+02,2.500E+00
1.63E+02,1.738E+04,-6.647E+01,-1.644E+02,2.500E+00
1.64E+02,1.820E+04,-6.424E+01,-1.694E+02,2.500E+00
1.65E+02,1.905E+04,-6.419E+01,-1.654E+02,2.500E+00
1.66E+02,1.995E+04,-6.484E+01,-1.713E+02,2.500E+00
1.67E+02,2.089E+04,-6.416E+01,-1.716E+02,2.500E+00
1.68E+02,2.188E+04,-6.376E+01,-1.695E+02,2.500E+00
1.69E+02,2.291E+04,-6.471E+01,-1.771E+02,2.500E+00
1.70E+02,2.399E+04,-6.401E+01,-1.789E+02,2.500E+00
1.71E+02,2.512E+04,-6.441E+01,1.779E+02,2.500E+00
1.72E+02,2.630E+04,-6.369E+01,1.711E+02,2.500E+00
1.73E+02,2.754E+04,-6.527E+01,1.665E+02,2.500E+00
1.74E+02,2.884E+04,-6.320E+01,1.634E+02,2.500E+00
1.75E+02,3.020E+04,-6.418E+01,1.626E+02,2.500E+00
1.76E+02,3.162E+04,-6.516E+01,1.634E+02,2.500E+00
1.77E+02,3.311E+04,-6.402E+01,1.495E+02,2.500E+00
1.78E+02,3.467E+04,-6.452E+01,1.559E+02,2.500E+00
1.79E+02,3.631E+04,-6.434E+01,1.506E+02,2.500E+00
1.80E+02,3.802E+04,-6.402E+01,1.450E+02,2.500E+00
1.81E+02,3.981E+04,-6.511E+01,1.519E+02,2.500E+00
1.82E+02,4.169E+04,-6.499E+01,1.479E+02,2.500E+00
1.83E+02,4.365E+04,-6.478E+01,1.355E+02,2.500E+00
1.84E+02,4.571E+04,-6.447E+01,1.332E+02,2.500E+00
1.85E+02,4.786E+04,-6.443E+01,1.352E+02,2.500E+00
1.86E+02,5.012E+04,-6.498E+01,1.382E+02,2.500E+00
1.87E+02,5.248E+04,-6.562E+01,1.285E+02,2.500E+00
1.88E+02,5.495E+04,-6.522E+01,1.294E+02,2.500E+00
1.89E+02,5.754E+04,-6.488E+01,1.292E+02,2.500E+00
1.90E+02,6.026E+04,-6.475E+01,1.255E+02,2.500E+00
1.91E+02,6.310E+04,-6.362E+01,1.252E+02,2.500E+00
1.92E+02,6.607E+04,-6.477E+01,1.193E+02,2.500E+00
1.93E+02,6.918E+04,-6.485E+01,1.169E+02,2.500E+00
1.94E+02,7.244E+04,-6.391E+01,1.184E+02,2.500E+00
1.95E+02,7.586E+04,-6.486E+01,1.148E+02,2.500E+00
1.96E+02,7.943E+04,-6.520E+01,1.183E+02,2.500E+00
1.97E+02,8.318E+04,-6.385E+01,1.106E+02,2.500E+00
1.98E+02,8.710E+04,-6.450E+01,1.153E+02,2.500E+00
1.99E+02,9.120E+04,-6.467E+01,1.163E+02,2.500E+00
2.00E+02,9.550E+04,-6.305E+01,1.071E+02,2.500E+00
2.01E+02,1.000E+05,-6.417E+01,1.047E+02,2.500E+00
2.02E+02,1.047E+05,-6.294E+01,1.053E+02,2.500E+00
2.03E+02,1.096E+05,-6.332E+01,1.117E+02,2.500E+00
2.04E+02,1.148E+05,-6.392E+01,1.050E+02,2.500E+00
2.05E+02,1.202E+05,-6.288E+01,1.019E+02,2.500E+00
2.06E+02,1.259E+05,-6.189E+01,1.029E+02,2.500E+00
2.07E+02,1.318E+05,-6.190E+01,1.009E+02,2.500E+00
2.08E+02,1.380E+05,-6.176E+01,1.058E+02,2.500E+00
2.09E+02,1.445E+05,-6.116E+01,9.811E+01,2.500E+00
2.10E+02,1.514E+05,-6.082E+01,9.604E+01,2.500E+00
2.11E+02,1.585E+05,-6.089E+01,9.635E+01,2.500E+00
2.12E+02,1.660E+05,-6.015E+01,9.682E+01,2.500E+00
2.13E+02,1.738E+05,-6.013E+01,8.583E+01,2.500E+00
2.14E+02,1.820E+05,-6.038E+01,8.884E+01,2.500E+00
2.15E+02,1.905E+05,-6.043E+01,9.349E+01,2.500E+00
2.16E+02,1.995E+05,-6.015E+01,8.921E+01,2.500E+00
