in Sa,Frequency in Hz,Gain in dB,Phase in °,Amplitude in Vpp
1.00E+00,1.000E+01,-6.008E+01,1.688E+02,2.500E+00
2.00E+00,1.047E+01,-6.032E+01,1.612E+02,2.500E+00
3.00E+00,1.096E+01,-5.910E+01,1.686E+02,2.500E+00
4.00E+00,1.148E+01,-6.008E+01,1.629E+02,2.500E+00
5.00E+00,1.202E+01,-5.858E+01,1.622E+02,2.500E+00
6.00E+00,1.259E+01,-5.917E+01,1.635E+02,2.500E+00
7.00E+00,1.318E+01,-5.980E+01,1.564E+02,2.500E+00
8.00E+00,1.380E+01,-5.957E+01,1.568E+02,2.500E+00
9.00E+00,1.445E+01,-6.005E+01,1.624E+02,2.500E+00
1.00E+01,1.514E+01,-6.035E+01,1.547E+02,2.500E+00
1.10E+01,1.585E+01,-5.988E+01,1.471E+02,2.500E+00
1.20E+01,1.660E+01,-6.016E+01,1.517E+02,2.500E+00
1.30E+01,1.738E+01,-5.981E+01,1.529E+02,2.500E+00
1.40E+01,1.820E+01,-5.945E+01,1.495E+02,2.500E+00
1.50E+01,1.905E+01,-6.048E+01,1.459E+02,2.500E+00
1.60E+01,1.995E+01,-6.108E+01,1.517E+02,2.500E+00
1.70E+01,2.089E+01,-5.919E+01,1.538E+02,2.500E+00
1.80E+01,2.188E+01,-6.028E+01,1.495E+02,2.500E+00
1.90E+01,2.291E+01,-5.945E+01,1.537E+02,2.500E+00
2.00E+01,2.399E+01,-6.191E+01,1.482E+02,2.500E+00
2.10E+01,2.512E+01,-6.024E+01,1.446E+02,2.500E+00
2.20E+01,2.630E+01,-5.929E+01,1.386E+02,2.500E+00
2.30E+01,2.754E+01,-5.920E+01,1.400E+02,2.500E+00
2.40E+01,2.884E+01,-6.196E+01,1.327E+02,2.500E+00
2.50E+01,3.020E+01,-8.065E+01,1.521E+02,2.500E+00
2.60E+01,3.162E+01,-7.617E+01,-1.733E+02,2.500E+00
2.70E+01,3.311E+01,-7.830E+01,1.412E+02,2.500E+00
2.80E+01,3.467E+01,-7.536E+01,1.424E+02,2.500E+00
2.90E+01,3.631E+01,-7.981E+01,1.628E+02,2.500E+00
3.00E+01,3.802E+01,-7.372E+01,1.727E+02,2.500E+00
3.10E+01,3.981E+01,-6.904E+01,1.520E+02,2.500E+00
3.20E+01,4.169E+01,-7.236E+01,-1.580E+02,2.500E+00
3.30E+01,4.365E+01,-7.785E+01,-1.313E+02,2.500E+00
3.40E+01,4.571E+01,-7.505E+01,1.377E+02,2.500E+00
3.50E+01,4.786E+01,-7.501E+01,1.378E+02,2.500E+00
3.60E+01,5.012E+01,-7.004E+01,1.512E+02,2.500E+00
3.70E+01,5.248E+01,-6.978E+01,1.548E+02,2.500E+00
3.80E+01,5.495E+01,-6.997E+01,1.302E+02,2.500E+00
3.90E+01,5.754E+01,-8.494E+01,1.504E+02,2.500E+00
4.00E+01,6.026E+01,-8.508E+01,-1.737E+02,2.500E+00
4.10E+01,6.310E+01,-6.942E+01,1.515E+02,2.500E+00
4.20E+01,6.607E+01,-7.320E+01,1.458E+02,2.500E+00
4.30E+01,6.918E+01,-7.005E+01,1.375E+02,2.500E+00
4.40E+01,7.244E+01,-7.209E+01,1.339E+02,2.500E+00
4.50E+01,7.586E+01,-7.958E+01,1.334E+02,2.500E+00
4.60E+01,7.943E+01,-8.006E+01,4.482E+00,2.500E+00
4.70E+01,8.318E+01,-6.952E+01,1.722E+02,2.500E+00
4.80E+01,8.710E+01,-7.794E+01,-1.688E+02,2.500E+00
4.90E+01,9.120E+01,-6.949E+01,1.065E+02,2.500E+00
5.00E+01,9.550E+01,-7.313E+01,1.282E+02,2.500E+00
5.10E+01,1.000E+02,-7.312E+01,1.780E+01,2.500E+00
5.20E+01,1.047E+02,-7.936E+01,1.108E+02,2.500E+00
5.30E+01,1.096E+02,-7.722E+01,-1.793E+02,2.500E+00
5.40E+01,1.148E+02,-7.169E+01,1.800E+02,2.500E+00
5.50E+01,1.202E+02,-7.754E+01,1.546E+02,2.500E+00
5.60E+01,1.259E+02,-7.850E+01,8.373E+01,2.500E+00
5.70E+01,1.318E+02,-7.562E+01,1.380E+02,2.500E+00
5.80E+01,1.380E+02,-7.694E+01,1.391E+02,2.500E+00
5.90E+01,1.445E+02,-7.977E+01,1.292E+02,2.500E+00
6.00E+01,1.514E+02,-7.640E+01,-1.669E+02,2.500E+00
6.10E+01,1.585E+02,-8.649E+01,8.309E+01,2.500E+00
6.20E+01,1.660E+02,-8.266E+01,-9.745E+01,2.500E+00
6.30E+01,1.738E+02,-7.379E+01,-1.790E+02,2.500E+00
6.40E+01,1.820E+02,-6.846E+01,1.682E+02,2.500E+00
6.50E+01,1.905E+02,-8.539E+01,7.449E+01,2.500E+00
6.60E+01,1.995E+02,-8.203E+01,-2.828E+01,2.500E+00
6.70E+01,2.089E+02,-7.258E+01,1.226E+02,2.500E+00
6.80E+01,2.188E+02,-7.054E+01,1.058E+02,2.500E+00
6.90E+01,2.291E+02,-7.570E+01,1.689E+02,2.500E+00
7.00E+01,2.399E+02,-7.126E+01,1.063E+02,2.500E+00
7.10E+01,2.512E+02,-7.514E+01,-2.152E+01,2.500E+00
7.20E+01,2.630E+02,-7.575E+01,8.006E+01,2.500E+00
7.30E+01,2.754E+02,-8.445E+01,3.293E+01,2.500E+00
7.40E+01,2.884E+02,-7.275E+01,1.323E+02,2.500E+00
7.50E+01,3.020E+02,-6.998E+01,-1.288E+02,2.500E+00
7.60E+01,3.162E+02,-8.083E+01,-1.119E+02,2.500E+00
7.70E+01,3.311E+02,-7.850E+01,1.608E+02,2.500E+00
7.80E+01,3.467E+02,-7.516E+01,-1.747E+02,2.500E+00
7.90E+01,3.631E+02,-6.879E+01,-1.782E+02,2.500E+00
8.00E+01,3.802E+02,-7.175E+01,1.666E+02,2.500E+00
8.10E+01,3.981E+02,-7.384E+01,3.082E+01,2.500E+00
8.20E+01,4.169E+02,-6.983E+01,-8.715E+00,2.500E+00
8.30E+01,4.365E+02,-6.886E+01,-1.522E+01,2.500E+00
8.40E+01,4.571E+02,-6.865E+01,-5.746E+01,2.500E+00
8.50E+01,4.786E+02,-6.484E+01,5.730E+01,2.500E+00
8.60E+01,5.012E+02,-6.520E+01,9.435E+01,2.500E+00
8.70E+01,5.248E+02,-6.694E+01,1.488E+02,2.500E+00
8.80E+01,5.495E+02,-7.085E+01,-1.352E+02,2.500E+00
8.90E+01,5.754E+02,-6.740E+01,1.444E+02,2.500E+00
9.00E+01,6.026E+02,-6.966E+01,1.030E+02,2.500E+00
9.10E+01,6.310E+02,-7.935E+01,-1.475E+02,2.500E+00
9.20E+01,6.607E+02,-6.868E+01,-3.688E+01,2.500E+00
9.30E+01,6.918E+02,-6.989E+01,6.818E+01,2.500E+00
9.40E+01,7.244E+02,-7.591E+01,1.331E+00,2.500E+00
9.50E+01,7.586E+02,-6.649E+01,1.169E+02,2.500E+00
9.60E+01,7.943E+02,-6.515E+01,1.301E+02,2.500E+00
9.70E+01,8.318E+02,-8.048E+01,-2.561E+00,2.500E+00
9.80E+01,8.710E+02,-7.172E+01,3.465E+01,2.500E+00
9.90E+01,9.120E+02,-6.790E+01,1.049E+02,2.500E+00
1.00E+02,9.550E+02,-6.906E+01,-1.574E+02,2.500E+00
1.01E+02,1.000E+03,-7.869E+01,1.062E+02,2.500E+00
1.02E+02,1.047E+03,-7.309E+01,1.099E+02,2.500E+00
1.03E+02,1.096E+03,-7.209E+01,1.215E+02,2.500E+00
1.04E+02,1.148E+03,-7.376E+01,-1.735E+02,2.500E+00
1.05E+02,1.202E+03,-7.933E+01,-1.691E+02,2.500E+00
1.06E+02,1.259E+03,-8.814E+01,-7.002E+00,2.500E+00
1.07E+02,1.318E+03,-8.499E+01,-7.727E+01,2.500E+00
1.08E+02,1.380E+03,-8.124E+01,-6.879E+01,2.500E+00
1.09E+02,1.445E+03,-8.710E+01,7.625E+01,2.500E+00
1.10E+02,1.514E+03,-7.670E+01,-1.402E+02,2.500E+00
1.11E+02,1.585E+03,-8.147E+01,4.873E+01,2.500E+00
1.12E+02,1.660E+03,-7.600E+01,8.191E+01,2.500E+00
1.13E+02,1.738E+03,-8.378E+01,8.847E+01,2.500E+00
1.14E+02,1.820E+03,-8.174E+01,-1.524E+02,2.500E+00
1.15E+02,1.905E+03,-7.445E+01,1.413E+02,2.500E+00
1.16E+02,1.995E+03,-7.862E+01,6.334E+01,2.500E+00
1.17E+02,2.089E+03,-7.657E+01,-6.438E+01,2.500E+00
1.18E+02,2.188E+03,-8.079E+01,1.428E+02,2.500E+00
1.19E+02,2.291E+03,-7.018E+01,1.270E+02,2.500E+00
1.20E+02,2.399E+03,-7.611E+01,-1.460E+02,2.500E+00
1.21E+02,2.512E+03,-7.521E+01,7.148E+01,2.500E+00
1.22E+02,2.630E+03,-8.429E+01,1.081E+02,2.500E+00
1.23E+02,2.754E+03,-7.403E+01,1.316E+02,2.500E+00
1.24E+02,2.884E+03,-7.780E+01,-2.736E+01,2.500E+00
1.25E+02,3.020E+03,-7.540E+01,-8.041E+00,2.500E+00
1.26E+02,3.162E+03,-8.227E+01,1.662E+02,2.500E+00
1.27E+02,3.311E+03,-7.919E+01,2.886E+00,2.500E+00
1.28E+02,3.467E+03,-7.664E+01,2.026E+01,2.500E+00
1.29E+02,3.631E+03,-8.087E+01,-1.209E+02,2.500E+00
1.30E+02,3.802E+03,-7.659E+01,7.754E+01,2.500E+00
1.31E+02,3.981E+03,-8.576E+01,1.772E+02,2.500E+00
1.32E+02,4.169E+03,-8.173E+01,3.695E+01,2.500E+00
1.33E+02,4.365E+03,-7.790E+01,4.407E+01,2.500E+00
1.34E+02,4.571E+03,-7.764E+01,1.154E+02,2.500E+00
1.35E+02,4.786E+03,-7.477E+01,9.612E+01,2.500E+00
1.36E+02,5.012E+03,-7.595E+01,-8.000E+01,2.500E+00
1.37E+02,5.248E+03,-7.873E+01,1.281E+01,2.500E+00
1.38E+02,5.495E+03,-7.630E+01,1.193E+02,2.500E+00
1.39E+02,5.754E+03,-8.349E+01,6.582E+01,2.500E+00
1.40E+02,6.026E+03,-9.668E+01,-7.270E+00,2.500E+00
1.41E+02,6.310E+03,-7.740E+01,9.640E+01,2.500E+00
1.42E+02,6.607E+03,-8.821E+01,-2.639E+01,2.500E+00
1.43E+02,6.918E+03,-7.859E+01,-5.769E+01,2.500E+00
1.44E+02,7.244E+03,-7.950E+01,1.071E+02,2.500E+00
1.45E+02,7.586E+03,-8.370E+01,-1.093E+02,2.500E+00
1.46E+02,7.943E+03,-8.128E+01,1.705E+02,2.500E+00
1.47E+02,8.318E+03,-9.160E+01,-1.459E+02,2.500E+00
1.48E+02,8.710E+03,-9.093E+01,-1.511E+02,2.500E+00
1.49E+02,9.120E+03,-7.894E+01,2.370E+01,2.500E+00
1.50E+02,9.550E+03,-7.056E+01,1.001E+02,2.500E+00
1.51E+02,1.000E+04,-8.213E+01,1.623E+02,2.500E+00
1.52E+02,1.047E+04,-7.795E+01,-1.800E+02,2.500E+00
1.53E+02,1.096E+04,-7.263E+01,-1.759E+02,2.500E+00
1.54E+02,1.148E+04,-7.454E+01,-1.797E+02,2.500E+00
1.55E+02,1.202E+04,-7.099E+01,-1.786E+02,2.500E+00
1.56E+02,1.259E+04,-6.991E+01,-1.736E+02,2.500E+00
1.57E+02,1.318E+04,-7.049E+01,1.719E+02,2.500E+00
1.58E+02,1.380E+04,-7.003E+01,1.770E+02,2.500E+00
1.59E+02,1.445E+04,-6.979E+01,1.675E+02,2.500E+00
1.60E+02,1.514E+04,-6.704E+01,1.565E+02,2.500E+00
1.61E+02,1.585E+04,-6.845E+01,1.743E+02,2.500E+00
1.62E+02,1.660E+04,-6.676E+01,1.599E+02,2.500E+00
1.63E+02,1.738E+04,-6.452E+01,1.544E+02,2.500E+00
1.64E+02,1.820E+04,-6.448E+01,1.518E+02,2.500E+00
1.65E+02,1.905E+04,-6.351E+01,1.451E+02,2.500E+00
1.66E+02,1.995E+04,-6.380E+01,1.440E+02,2.500E+00
1.67E+02,2.089E+04,-6.267E+01,1.413E+02,2.500E+00
1.68E+02,2.188E+04,-6.215E+01,1.384E+02,2.500E+00
1.69E+02,2.291E+04,-6.164E+01,1.358E+02,2.500E+00
1.70E+02,2.399E+04,-6.086E+01,1.327E+02,2.500E+00
1.71E+02,2.512E+04,-5.990E+01,1.252E+02,2.500E+00
1.72E+02,2.630E+04,-6.034E+01,1.261E+02,2.500E+00
1.73E+02,2.754E+04,-6.000E+01,1.250E+02,2.500E+00
1.74E+02,2.884E+04,-5.924E+01,1.196E+02,2.500E+00
1.75E+02,3.020E+04,-5.860E+01,1.187E+02,2.500E+00
1.76E+02,3.162E+04,-5.866E+01,1.154E+02,2.500E+00
1.77E+02,3.311E+04,-5.752E+01,1.115E+02,2.500E+00
1.78E+02,3.467E+04,-5.799E+01,1.132E+02,2.500E+00
1.79E+02,3.631E+04,-5.711E+01,1.107E+02,2.500E+00
1.80E+02,3.802E+04,-5.669E+01,1.071E+02,2.500E+00
1.81E+02,3.981E+04,-5.675E+01,1.062E+02,2.500E+00
1.82E+02,4.169E+04,-5.632E+01,1.040E+02,2.500E+00
1.83E+02,4.365E+04,-5.545E+01,9.962E+01,2.500E+00
1.84E+02,4.571E+04,-5.510E+01,1.003E+02,2.500E+00
1.85E+02,4.786E+04,-5.507E+01,9.875E+01,2.500E+00
1.86E+02,5.012E+04,-5.480E+01,9.739E+01,2.500E+00
1.87E+02,5.248E+04,-5.446E+01,9.626E+01,2.500E+00
1.88E+02,5.495E+04,-5.395E+01,9.544E+01,2.500E+00
1.89E+02,5.754E+04,-5.369E+01,9.533E+01,2.500E+00
1.90E+02,6.026E+04,-5.335E+01,9.277E+01,2.500E+00
1.91E+02,6.310E+04,-5.314E+01,9.226E+01,2.500E+00
1.92E+02,6.607E+04,-5.241E+01,9.128E+01,2.500E+00
1.93E+02,6.918E+04,-5.244E+01,9.152E+01,2.500E+00
1.94E+02,7.244E+04,-5.191E+01,8.753E+01,2.500E+00
1.95E+02,7.586E+04,-5.151E+01,8.781E+01,2.500E+00
1.96E+02,7.943E+04,-5.137E+01,8.636E+01,2.500E+00
1.97E+02,8.318E+04,-5.064E+01,8.586E+01,2.500E+00
1.98E+02,8.710E+04,-5.067E+01,8.524E+01,2.500E+00
1.99E+02,9.120E+04,-5.030E+01,8.468E+01,2.500E+00
2.00E+02,9.550E+04,-4.964E+01,8.287E+01,2.500E+00
2.01E+02,1.000E+05,-4.926E+01,8.182E+01,2.500E+00
2.02E+02,1.047E+05,-4.873E+01,8.163E+01,2.500E+00
2.03E+02,1.096E+05,-4.859E+01,8.114E+01,2.500E+00
2.04E+02,1.148E+05,-4.846E+01,7.978E+01,2.500E+00
2.05E+02,1.202E+05,-4.782E+01,7.769E+01,2.500E+00
2.06E+02,1.259E+05,-4.743E+01,7.730E+01,2.500E+00
2.07E+02,1.318E+05,-4.716E+01,7.609E+01,2.500E+00
2.08E+02,1.380E+05,-4.671E+01,7.558E+01,2.500E+00
2.09E+02,1.445E+05,-4.627E+01,7.440E+01,2.500E+00
2.10E+02,1.514E+05,-4.608E+01,7.279E+01,2.500E+00
2.11E+02,1.585E+05,-4.574E+01,7.241E+01,2.500E+00
2.12E+02,1.660E+05,-4.543E+01,7.028E+01,2.500E+00
2.13E+02,1.738E+05,-4.493E+01,6.941E+01,2.500E+00
2.14E+02,1.820E+05,-4.486E+01,6.774E+01,2.500E+00
2.15E+02,1.905E+05,-4.432E+01,6.755E+01,2.500E+00
2.16E+02,1.995E+05,-4.421E+01,6.549E+01,2.500E+00
