in Sa,Frequency in Hz,Gain in dB,Phase in °,Amplitude in Vpp
1.00E+00,1.000E+01,-1.995E+01,-1.325E+02,2.500E+00
2.00E+00,1.047E+01,-1.969E+01,-1.335E+02,2.500E+00
3.00E+00,1.096E+01,-1.944E+01,-1.346E+02,2.500E+00
4.00E+00,1.148E+01,-1.924E+01,-1.354E+02,2.500E+00
5.00E+00,1.202E+01,-1.902E+01,-1.365E+02,2.500E+00
6.00E+00,1.259E+01,-1.881E+01,-1.376E+02,2.500E+00
7.00E+00,1.318E+01,-1.862E+01,-1.387E+02,2.500E+00
8.00E+00,1.380E+01,-1.843E+01,-1.397E+02,2.500E+00
9.00E+00,1.445E+01,-1.813E+01,-1.411E+02,2.500E+00
1.00E+01,1.514E+01,-1.798E+01,-1.421E+02,2.500E+00
1.10E+01,1.585E+01,-1.780E+01,-1.432E+02,2.500E+00
1.20E+01,1.660E+01,-1.762E+01,-1.444E+02,2.500E+00
1.30E+01,1.738E+01,-1.746E+01,-1.455E+02,2.500E+00
1.40E+01,1.820E+01,-1.733E+01,-1.467E+02,2.500E+00
1.50E+01,1.905E+01,-1.718E+01,-1.477E+02,2.500E+00
1.60E+01,1.995E+01,-1.707E+01,-1.489E+02,2.500E+00
1.70E+01,2.089E+01,-1.693E+01,-1.500E+02,2.500E+00
1.80E+01,2.188E+01,-1.682E+01,-1.511E+02,2.500E+00
1.90E+01,2.291E+01,-1.670E+01,-1.522E+02,2.500E+00
2.00E+01,2.399E+01,-1.661E+01,-1.530E+02,2.500E+00
2.10E+01,2.512E+01,-1.650E+01,-1.543E+02,2.500E+00
2.20E+01,2.630E+01,-1.641E+01,-1.552E+02,2.500E+00
2.30E+01,2.754E+01,-1.634E+01,-1.562E+02,2.500E+00
2.40E+01,2.884E+01,-1.627E+01,-1.570E+02,2.500E+00
2.50E+01,3.020E+01,-1.624E+01,-1.575E+02,2.500E+00
2.60E+01,3.162E+01,-1.618E+01,-1.584E+02,2.500E+00
2.70E+01,3.311E+01,-1.611E+01,-1.594E+02,2.500E+00
2.80E+01,3.467E+01,-1.606E+01,-1.602E+02,2.500E+00
2.90E+01,3.631E+01,-1.601E+01,-1.610E+02,2.500E+00
3.00E+01,3.802E+01,-1.596E+01,-1.618E+02,2.500E+00
3.10E+01,3.981E+01,-1.591E+01,-1.626E+02,2.500E+00
3.20E+01,4.169E+01,-1.586E+01,-1.633E+02,2.500E+00
3.30E+01,4.365E+01,-1.582E+01,-1.641E+02,2.500E+00
3.40E+01,4.571E+01,-1.579E+01,-1.648E+02,2.500E+00
3.50E+01,4.786E+01,-1.575E+01,-1.654E+02,2.500E+00
3.60E+01,5.012E+01,-1.571E+01,-1.661E+02,2.500E+00
3.70E+01,5.248E+01,-1.570E+01,-1.667E+02,2.500E+00
3.80E+01,5.495E+01,-1.566E+01,-1.673E+02,2.500E+00
3.90E+01,5.754E+01,-1.564E+01,-1.680E+02,2.500E+00
4.00E+01,6.026E+01,-1.561E+01,-1.685E+02,2.500E+00
4.10E+01,6.310E+01,-1.560E+01,-1.690E+02,2.500E+00
4.20E+01,6.607E+01,-1.558E+01,-1.696E+02,2.500E+00
4.30E+01,6.918E+01,-1.556E+01,-1.700E+02,2.500E+00
4.40E+01,7.244E+01,-1.555E+01,-1.705E+02,2.500E+00
4.50E+01,7.586E+01,-1.552E+01,-1.709E+02,2.500E+00
4.60E+01,7.943E+01,-1.552E+01,-1.714E+02,2.500E+00
4.70E+01,8.318E+01,-1.551E+01,-1.718E+02,2.500E+00
4.80E+01,8.710E+01,-1.549E+01,-1.722E+02,2.500E+00
4.90E+01,9.120E+01,-1.548E+01,-1.727E+02,2.500E+00
5.00E+01,9.550E+01,-1.547E+01,-1.730E+02,2.500E+00
5.10E+01,1.000E+02,-1.548E+01,-1.732E+02,2.500E+00
5.20E+01,1.047E+02,-1.547E+01,-1.737E+02,2.500E+00
5.30E+01,1.096E+02,-1.546E+01,-1.740E+02,2.500E+00
5.40E+01,1.148E+02,-1.546E+01,-1.744E+02,2.500E+00
5.50E+01,1.202E+02,-1.545E+01,-1.747E+02,2.500E+00
5.60E+01,1.259E+02,-1.544E+01,-1.750E+02,2.500E+00
5.70E+01,1.318E+02,-1.543E+01,-1.753E+02,2.500E+00
5.80E+01,1.380E+02,-1.542E+01,-1.756E+02,2.500E+00
5.90E+01,1.445E+02,-1.542E+01,-1.759E+02,2.500E+00
6.00E+01,1.514E+02,-1.544E+01,-1.761E+02,2.500E+00
6.10E+01,1.585E+02,-1.544E+01,-1.764E+02,2.500E+00
6.20E+01,1.660E+02,-1.542E+01,-1.767E+02,2.500E+00
6.30E+01,1.738E+02,-1.539E+01,-1.770E+02,2.500E+00
6.40E+01,1.820E+02,-1.540E+01,-1.773E+02,2.500E+00
6.50E+01,1.905E+02,-1.542E+01,-1.775E+02,2.500E+00
6.60E+01,1.995E+02,-1.543E+01,-1.777E+02,2.500E+00
6.70E+01,2.089E+02,-1.541E+01,-1.779E+02,2.500E+00
6.80E+01,2.188E+02,-1.540E+01,-1.782E+02,2.500E+00
6.90E+01,2.291E+02,-1.540E+01,-1.785E+02,2.500E+00
7.00E+01,2.399E+02,-1.540E+01,-1.787E+02,2.500E+00
7.10E+01,2.512E+02,-1.540E+01,-1.789E+02,2.500E+00
7.20E+01,2.630E+02,-1.540E+01,-1.792E+02,2.500E+00
7.30E+01,2.754E+02,-1.540E+01,-1.794E+02,2.500E+00
7.40E+01,2.884E+02,-1.540E+01,-1.797E+02,2.500E+00
7.50E+01,3.020E+02,-1.540E+01,-1.799E+02,2.500E+00
7.60E+01,3.162E+02,-1.542E+01,1.800E+02,2.500E+00
7.70E+01,3.311E+02,-1.543E+01,1.797E+02,2.500E+00
7.80E+01,3.467E+02,-1.542E+01,1.795E+02,2.500E+00
7.90E+01,3.631E+02,-1.540E+01,1.792E+02,2.500E+00
8.00E+01,3.802E+02,-1.542E+01,1.790E+02,2.500E+00
8.10E+01,3.981E+02,-1.544E+01,1.788E+02,2.500E+00
8.20E+01,4.169E+02,-1.546E+01,1.786E+02,2.500E+00
8.30E+01,4.365E+02,-1.546E+01,1.783E+02,2.500E+00
8.40E+01,4.571E+02,-1.546E+01,1.781E+02,2.500E+00
8.50E+01,4.786E+02,-1.547E+01,1.778E+02,2.500E+00
8.60E+01,5.012E+02,-1.548E+01,1.776E+02,2.500E+00
8.70E+01,5.248E+02,-1.550E+01,1.774E+02,2.500E+00
8.80E+01,5.495E+02,-1.551E+01,1.771E+02,2.500E+00
8.90E+01,5.754E+02,-1.552E+01,1.768E+02,2.500E+00
9.00E+01,6.026E+02,-1.553E+01,1.766E+02,2.500E+00
9.10E+01,6.310E+02,-1.555E+01,1.764E+02,2.500E+00
9.20E+01,6.607E+02,-1.558E+01,1.763E+02,2.500E+00
9.30E+01,6.918E+02,-1.560E+01,1.760E+02,2.500E+00
9.40E+01,7.244E+02,-1.560E+01,1.757E+02,2.500E+00
9.50E+01,7.586E+02,-1.560E+01,1.754E+02,2.500E+00
9.60E+01,7.943E+02,-1.562E+01,1.751E+02,2.500E+00
9.70E+01,8.318E+02,-1.567E+01,1.750E+02,2.500E+00
9.80E+01,8.710E+02,-1.571E+01,1.747E+02,2.500E+00
9.90E+01,9.120E+02,-1.571E+01,1.744E+02,2.500E+00
1.00E+02,9.550E+02,-1.574E+01,1.741E+02,2.500E+00
1.01E+02,1.000E+03,-1.578E+01,1.738E+02,2.500E+00
1.02E+02,1.047E+03,-1.581E+01,1.734E+02,2.500E+00
1.03E+02,1.096E+03,-1.584E+01,1.733E+02,2.500E+00
1.04E+02,1.148E+03,-1.588E+01,1.732E+02,2.500E+00
1.05E+02,1.202E+03,-1.592E+01,1.727E+02,2.500E+00
1.06E+02,1.259E+03,-1.596E+01,1.723E+02,2.500E+00
1.07E+02,1.318E+03,-1.601E+01,1.722E+02,2.500E+00
1.08E+02,1.380E+03,-1.607E+01,1.721E+02,2.500E+00
1.09E+02,1.445E+03,-1.611E+01,1.717E+02,2.500E+00
1.10E+02,1.514E+03,-1.616E+01,1.714E+02,2.500E+00
1.11E+02,1.585E+03,-1.625E+01,1.713E+02,2.500E+00
1.12E+02,1.660E+03,-1.628E+01,1.711E+02,2.500E+00
1.13E+02,1.738E+03,-1.634E+01,1.709E+02,2.500E+00
1.14E+02,1.820E+03,-1.643E+01,1.707E+02,2.500E+00
1.15E+02,1.905E+03,-1.646E+01,1.707E+02,2.500E+00
1.16E+02,1.995E+03,-1.655E+01,1.704E+02,2.500E+00
1.17E+02,2.089E+03,-1.663E+01,1.704E+02,2.500E+00
1.18E+02,2.188E+03,-1.668E+01,1.703E+02,2.500E+00
1.19E+02,2.291E+03,-1.672E+01,1.702E+02,2.500E+00
1.20E+02,2.399E+03,-1.682E+01,1.702E+02,2.500E+00
1.21E+02,2.512E+03,-1.691E+01,1.701E+02,2.500E+00
1.22E+02,2.630E+03,-1.695E+01,1.701E+02,2.500E+00
1.23E+02,2.754E+03,-1.700E+01,1.702E+02,2.500E+00
1.24E+02,2.884E+03,-1.711E+01,1.701E+02,2.500E+00
1.25E+02,3.020E+03,-1.717E+01,1.702E+02,2.500E+00
1.26E+02,3.162E+03,-1.721E+01,1.704E+02,2.500E+00
1.27E+02,3.311E+03,-1.730E+01,1.704E+02,2.500E+00
1.28E+02,3.467E+03,-1.736E+01,1.705E+02,2.500E+00
1.29E+02,3.631E+03,-1.740E+01,1.708E+02,2.500E+00
1.30E+02,3.802E+03,-1.748E+01,1.707E+02,2.500E+00
1.31E+02,3.981E+03,-1.752E+01,1.710E+02,2.500E+00
1.32E+02,4.169E+03,-1.758E+01,1.711E+02,2.500E+00
1.33E+02,4.365E+03,-1.764E+01,1.713E+02,2.500E+00
1.34E+02,4.571E+03,-1.768E+01,1.713E+02,2.500E+00
1.35E+02,4.786E+03,-1.773E+01,1.716E+02,2.500E+00
1.36E+02,5.012E+03,-1.777E+01,1.720E+02,2.500E+00
1.37E+02,5.248E+03,-1.782E+01,1.720E+02,2.500E+00
1.38E+02,5.495E+03,-1.786E+01,1.720E+02,2.500E+00
1.39E+02,5.754E+03,-1.790E+01,1.725E+02,2.500E+00
1.40E+02,6.026E+03,-1.793E+01,1.727E+02,2.500E+00
1.41E+02,6.310E+03,-1.796E+01,1.726E+02,2.500E+00
1.42E+02,6.607E+03,-1.799E+01,1.730E+02,2.500E+00
1.43E+02,6.918E+03,-1.802E+01,1.732E+02,2.500E+00
1.44E+02,7.244E+03,-1.804E+01,1.732E+02,2.500E+00
1.45E+02,7.586E+03,-1.807E+01,1.736E+02,2.500E+00
1.46E+02,7.943E+03,-1.809E+01,1.736E+02,2.500E+00
1.47E+02,8.318E+03,-1.811E+01,1.739E+02,2.500E+00
1.48E+02,8.710E+03,-1.813E+01,1.740E+02,2.500E+00
1.49E+02,9.120E+03,-1.815E+01,1.742E+02,2.500E+00
1.50E+02,9.550E+03,-1.817E+01,1.741E+02,2.500E+00
1.51E+02,1.000E+04,-1.818E+01,1.744E+02,2.500E+00
